"Quota[km]","g[m/s2]","T[K]","Rho[kg/m3]","P[kg/kmoli]","Lam[m]"
120,9.4466,359.06,2.2434E-8,26.211,3.2716
117.5,9.4539,328.88,3.0774E-8,26.441,2.4054
115,9.4612,298.95,4.3476E-8,26.691,1.7193
112.5,9.4685,268.67,6.4197E-8,26.971,1.1781
110,9.4759,243.64,9.6704E-8,27.265,0.79127
107.5,9.4832,223.94,1.501E-7,27.58,0.5158
105,9.4905,209.65,2.3284E-7,27.875,0.33601
102.5,9.4979,201.75,3.6093E-7,28.14,0.21868
100,9.5052,195.57,5.6279E-7,28.376,0.14136
97.5,9.5126,191.63,8.8539E-7,28.565,0.090457
95,9.52,188.82,1.3914E-6,28.722,0.057869
92.5,9.5274,187.6,2.1828E-6,28.827,0.037007
90,9.5348,186.87,3.4166E-6,28.902,0.023717
87.5,9.5422,186.87,5.329E-6,28.932,0.01525
85,9.5496,188.84,8.2195E-6,28.956,0.0098828
82.5,9.557,193.75,1.2378E-5,28.962,0.0065639
80,9.5644,198.64,1.8458E-5,28.964,0.0044023
77.5,9.5718,203.52,2.7267E-5,28.964,0.0029801
75,9.5793,208.4,3.9921E-5,28.964,0.0020354
72.5,9.5867,213.29,5.7951E-5,28.964,0.0014022
70,9.5942,219.58,8.2829E-5,28.964,9.810301E-4
67.5,9.6017,226.44,1.1685E-4,28.964,6.9538E-4
65,9.6091,233.29,1.6321E-4,28.964,4.9787E-4
62.5,9.6166,240.15,2.2582E-4,28.964,3.5983E-4
60,9.6241,247.02,3.0968E-4,28.964,2.6239E-4
57.5,9.6316,253.89,4.2111E-4,28.964,1.9296E-4
55,9.6391,260.77,0.0005681,28.964,1.4303E-4
52.5,9.6467,267.65,7.6071E-4,28.964,1.0683E-4
50,9.6542,270.65,0.0010269,28.964,7.913E-5
49,9.6572,270.65,0.0011628,28.964,6.9882E-5
48,9.6602,270.65,0.0013167,28.964,6.1713E-5
47,9.6632,269.68,0.0014965,28.964,5.4297E-5
46,9.6662,266.92,0.0017141,28.964,4.7404E-5
45,9.6693,264.16,0.0019663,28.964,4.1325E-5
44,9.6723,261.4,0.0022589,28.964,3.5973E-5
43,9.6753,258.64,0.0025989,28.964,3.1266E-5
42,9.6783,255.88,0.0029948,28.964,2.7133E-5
41,9.6814,253.11,0.0034564,28.964,2.3509E-5
40,9.6844,250.35,0.0039957,28.964,2.0336E-5
39.5,9.6859,248.97,0.0042987,28.964,1.8902E-5
39,9.6874,247.58,0.0046267,28.964,1.7562E-5
38.5,9.6889,246.2,0.0049819,28.964,1.6311E-5
38,9.6904,244.82,0.0053666,28.964,1.5141E-5
37.5,9.692,243.43,0.0057835,28.964,1.405E-5
37,9.6935,242.05,0.0062355,28.964,1.3031E-5
36.5,9.695,240.67,0.0067258,28.964,1.2081E-5
36,9.6965,239.28,0.0072579,28.964,1.1196E-5
35.5,9.698,237.9,0.0078357,28.964,1.037E-5
35,9.6995,236.51,0.0084634,28.964,9.601E-6
34.5,9.7011,235.13,0.0091456,28.964,8.8849E-6
34,9.7026,233.74,0.0098874,28.964,8.2182E-6
33.5,9.7041,232.36,0.010694,28.964,7.598E-6
33,9.7056,230.97,0.011573,28.964,7.0212E-6
32.5,9.7071,229.59,0.01253,28.964,6.4851E-6
32,9.7087,228.49,0.013555,28.964,5.9945E-6
31.5,9.7102,227.99,0.014629,28.964,5.5544E-6
31,9.7117,227.5,0.015792,28.964,5.1456E-6
30.5,9.7132,227,0.017049,28.964,4.766E-6
30,9.7147,226.51,0.01841,28.964,4.4137E-6
29.5,9.7163,226.01,0.019883,28.964,4.0867E-6
29,9.7178,225.52,0.021478,28.964,3.7832E-6
28.5,9.7193,225.02,0.023206,28.964,3.5016E-6
28,9.7208,224.53,0.025076,28.964,3.2404E-6
27.5,9.7223,224.03,0.027103,28.964,2.9981E-6
27,9.7239,223.54,0.029298,28.964,2.7734E-6
26.75,9.7246,223.29,0.030464,28.964,2.6673E-6
26.5,9.7254,223.04,0.031678,28.964,2.5651E-6
26.25,9.7262,222.79,0.032941,28.964,2.4667E-6
26,9.7269,222.54,0.034257,28.964,2.372E-6
25.75,9.7277,222.3,0.035626,28.964,2.2808E-6
25.5,9.7284,222.05,0.037052,28.964,2.193E-6
25.25,9.7292,221.8,0.038537,28.964,2.1085E-6
25,9.73,221.55,0.040084,28.964,2.0272E-6
24.75,9.7307,221.3,0.041694,28.964,1.9489E-6
24.5,9.7315,221.06,0.043372,28.964,1.18735E-6
24.25,9.7323,220.81,0.045118,28.964,1.801E-6
24,9.733,220.56,0.046938,28.964,1.7312E-6
23.75,9.7338,220.31,0.048833,28.964,1.664E-6
23.5,9.7345,220.06,0.050807,28.964,1.5993E-6
23.25,9.7353,219.82,0.052863,28.964,1.5371E-6
23,9.7361,219.57,0.055006,28.964,1.4772E-6
22.75,9.7368,219.32,0.057238,28.964,1.4196E-6
22.5,9.7376,219.07,0.059563,28.964,1.3642E-6
22.25,9.7384,218.82,0.061985,28.964,1.3109E-6
22,9.7391,218.57,0.06451,28.964,1.2596E-6
21.75,9.7399,218.33,0.06714,28.964,1.2103E-6
21.5,9.7406,218.08,0.069881,28.964,1.1628E-6
21.25,9.7414,217.83,0.072738,28.964,1.1171E-6
21,9.7422,217.58,0.075715,28.964,1.0732E-6
20.75,9.7429,217.33,0.078818,28.964,1.031E-6
20.5,9.7437,217.08,0.082051,28.964,9.9032E-7
20.25,9.7445,216.84,0.085422,28.964,9.5124E-7
20,9.7452,216.65,0.08891,28.964,9.1393E-7
19.75,9.746,216.65,0.092462,28.964,8.7881E-7
19.5,9.7468,216.65,0.096157,28.964,8.4505E-7
19.25,9.7475,216.65,0.099999,28.964,8.1258E-7
19,9.7483,216.65,0.104,28.964,7.8135E-7
18.75,9.7491,216.65,0.10815,28.964,7.5132E-7
18.5,9.7498,216.65,0.11247,28.964,7.2245E-7
18.25,9.7506,216.65,0.11697,28.964,6.9468E-7
18,9.7513,216.65,0.12165,28.964,6.6797E-7
17.75,9.7521,216.65,0.12651,28.964,6.423E-7
17.5,9.7529,216.65,0.13157,28.964,6.176E-7
17.25,9.7536,216.65,0.13683,28.964,5.9386E-7
17,9.7544,216.65,0.1423,28.964,5.7102E-7
16.75,9.7552,216.65,0.14799,28.964,5.4906E-7
16.5,9.7559,216.65,0.15391,28.964,5.2795E-7
16.25,9.7567,216.65,0.16007,28.964,5.0764E-7
16,9.7575,216.65,0.16647,28.964,4.8812E-7
15.75,9.7582,216.65,0.17313,28.964,4.6934E-7
15.5,9.759,216.65,0.18006,28.964,4.5128E-7
15.25,9.7598,216.65,0.18726,28.964,4.3392E-7
15,9.7605,216.65,0.19476,28.964,4.1723E-7
14.75,9.7613,216.65,0.20225,28.964,4.0117E-7
14.5,9.7621,216.65,0.21066,28.964,3.8574E-7
14.25,9.7628,216.65,0.21909,28.964,3.7089E-7
14,9.7636,216.65,0.22786,28.964,3.5662E-7
13.75,9.7644,216.65,0.23698,28.964,3.4289E-7
13.5,9.7651,216.65,0.24646,28.964,3.2969E-7
13.25,9.7659,216.65,0.25633,28.964,3.17E-7
13,9.7667,216.65,0.2666,28.964,3.0479E-7
12.75,9.7674,216.65,0.27727,28.964,2.9306E-7
12.5,9.7682,216.65,0.28838,28.964,2.8178E-7
12.25,9.769,216.65,0.29993,28.964,2.7092E-7
12,9.7697,216.65,0.31194,28.964,2.6049E-7
11.75,9.7705,216.65,0.32443,28.964,2.5046E-7
11.5,9.7713,216.65,0.33743,28.964,2.4081E-7
11.25,9.772,216.65,0.35095,28.964,2.3154E-7
11,9.7728,216.77,0.3648,28.964,2.2274E-7
10.75,9.7736,218.39,0.37654,28.964,2.158E-7
10.5,9.7743,220.01,0.38857,28.964,2.0912E-7
10.25,9.7751,221.63,0.40089,28.964,2.0269E-7
10,9.7759,223.25,0.41351,28.964,1.9651E-7
9.75,9.7766,224.87,0.42643,28.964,1.9055E-7
9.5,9.7774,226.49,0.43966,28.964,1.8482E-7
9.25,9.7782,228.11,0.4532,28.964,1.7929E-7
9,9.7789,229.73,0.46706,28.964,1.7397E-7
8.75,9.7797,231.35,0.48125,28.964,1.6885E-7
8.5,9.7805,232.97,0.49576,28.964,1.639E-7
8.25,9.7812,234.59,0.5106,28.964,1.5914E-7
8,9.782,236.22,0.52579,28.964,1.5454E-7
7.75,9.7828,237.84,0.54131,28.964,1.5011E-7
7.5,9.7836,239.46,0.55719,28.964,1.4583E-7
7.25,9.7843,241.08,0.57342,28.964,1.417E-7
7,9.7851,242.7,0.59002,28.964,1.3772E-7
6.75,9.7859,244.32,0.60698,28.964,1.3387E-7
6.5,9.7866,245.94,0.62431,28.964,1.3016E-7
6.25,9.7874,247.56,0.64202,28.964,1.2656E-7
6,9.7882,249.19,0.66011,28.964,1.231E-7
5.75,9.7889,250.81,0.67859,28.964,1.1974E-7
5.5,9.7897,252.43,0.69747,28.964,1.165E-7
5.25,9.7905,254.05,0.71675,28.964,1.1337E-7
5,9.7912,255.68,0.73643,28.964,1.1034E-7
4.75,9.792,257.3,0.75652,28.964,1.0741E-7
4.5,9.7928,258.92,0.77704,28.964,1.0457E-7
4.25,9.7936,260.54,0.79798,28.964,1.0183E-7
4,9.7943,262.17,0.81935,28.964,9.9173E-8
3.75,9.7951,263.79,0.84115,28.964,9.6602E-8
3.5,9.7959,265.41,0.8634,28.964,9.4113E-8
3.25,9.7966,267.04,0.8861,28.964,9.1702E-8
3,9.7974,268.66,0.90925,28.964,8.9367E-8
2.75,9.7982,270.28,0.93287,28.964,8.7104E-8
2.5,9.7989,271.91,0.95695,28.964,8.4912E-8
2.25,9.7997,273.53,0.98151,28.964,8.2788E-8
2,9.8005,275.15,1.0066,28.964,8.0728E-8
1.75,9.8013,276.78,1.0321,28.964,7.8731E-8
1.5,9.802,278.4,1.0581,28.964,7.6795E-8
1.25,9.8028,280.03,1.0846,28.964,7.4917E-8
1,9.8036,281.65,1.1117,28.964,7.3095E-8
0.75,9.8043,283.28,1.1392,28.964,7.1328E-8
0.5,9.8051,284.9,1.1673,28.964,6.9613E-8
0.25,9.8059,286.53,1.1959,28.964,6.7948E-8
0,9.8067,288.15,1.225,28.964,6.6332E-8